x,y,z,yaw,velocity,change_flag
160.8226,1.6230,0.2158,3.1354,0,0
159.8133,1.6235,0.1468,3.1373,10.8629,0
158.6964,1.6283,0.1463,3.1372,15.6011,0
157.4730,1.6331,0.1216,3.1355,19.0256,0
156.3465,1.6406,0.0775,3.1350,20.3716,0
155.2140,1.6483,0.0718,3.1350,20.3092,0
154.0858,1.6556,0.0699,3.1349,20.2518,0
152.8437,1.6639,0.0665,3.1348,24.1918,0
151.7872,1.6712,0.0636,3.1348,26.1478,0
150.6626,1.6788,0.0617,3.1347,27.5575,0
149.4958,1.6868,0.0603,3.1347,28.3371,0
148.2994,1.6951,0.0589,3.1347,28.9997,0
147.0800,1.7036,0.0573,3.1346,29.4822,0
145.8405,1.7122,0.0549,3.1346,29.9624,0
144.5826,1.7210,0.0538,3.1346,30.3649,0
143.3076,1.7299,0.0524,3.1346,30.7649,0
142.0169,1.7389,0.0519,3.1346,31.1347,0
140.7226,1.7480,0.0523,3.1346,31.0252,0
139.4316,1.7570,0.0527,3.1346,30.9578,0
138.1439,1.7660,0.0529,3.1346,30.8706,0
136.8907,1.7748,0.0536,3.1346,28.9446,0
135.7406,1.7829,0.0546,3.1347,26.6451,0
134.6721,1.7902,0.0550,3.1348,24.9580,0
133.6636,1.7971,0.0549,3.1348,23.6391,0
132.3777,1.8058,0.0544,3.1349,22.6876,0
131.1279,1.8144,0.0539,3.1350,22.1753,0
129.9091,1.8226,0.0537,3.1351,21.6036,0
128.7154,1.8306,0.0535,3.1350,21.2396,0
127.5370,1.8385,0.0533,3.1350,21.0481,0
126.3443,1.8464,0.0529,3.1349,21.8852,0
125.0710,1.8550,0.0521,3.1348,23.6893,0
124.0649,1.8618,0.0520,3.1348,24.3050,0
123.0617,1.8687,0.0525,3.1348,23.9070,0
122.0594,1.8755,0.0528,3.1348,24.1857,0
121.0499,1.8824,0.0527,3.1347,24.9708,0
119.9429,1.8900,0.0516,3.1347,27.7416,0
118.7328,1.8984,0.0508,3.1346,30.0424,0
117.4308,1.9075,0.0506,3.1345,32.1481,0
116.0509,1.9189,0.0507,3.1336,33.8440,0
114.6090,1.9389,0.0507,3.1289,35.1832,0
113.1188,1.9760,0.0480,3.1184,36.2595,0
112.1028,2.0152,0.0458,3.1077,36.8854,0
111.0709,2.0694,0.0418,3.0942,37.4405,0
110.0246,2.1402,0.0394,3.0786,37.9486,0
108.9654,2.2281,0.0367,3.0624,38.4294,0
107.8948,2.3318,0.0349,3.0471,38.8889,0
106.8142,2.4497,0.0349,3.0338,39.2112,0
105.7335,2.5782,0.0354,3.0231,39.1534,0
104.6557,2.7144,0.0359,3.0151,39.0853,0
103.5802,2.8531,0.0364,3.0112,39.0159,0
102.5068,2.9934,0.0366,3.0100,38.9458,0
101.4355,3.1348,0.0368,3.0096,38.8760,0
100.3980,3.2724,0.0375,3.0096,36.8523,0
98.9477,3.4650,0.0387,3.0097,33.7487,0
97.6257,3.6404,0.0396,3.0098,30.6543,0
96.4274,3.7993,0.0398,3.0099,27.7591,0
95.3388,3.9435,0.0398,3.0100,25.2981,0
94.3414,4.0756,0.0394,3.0101,23.2770,0
93.1232,4.2367,0.0388,3.0102,21.1616,0
91.9916,4.3865,0.0381,3.0104,19.8281,0
90.9307,4.5207,0.0377,3.0138,18.5968,0
89.9207,4.6332,0.0371,3.0237,18.2444,0
88.9109,4.7136,0.0365,3.0463,18.0170,0
87.9025,4.7583,0.0365,3.0761,17.8818,0
86.8925,4.7814,0.0363,3.1007,18.2139,0
85.8842,4.8100,0.0363,3.1089,18.1815,0
84.8791,4.8428,0.0362,3.1088,18.2500,0
83.8597,4.8762,0.0361,3.1087,18.5761,0
82.8463,4.9097,0.0362,3.1090,18.2664,0
81.8161,4.9434,0.0361,3.1092,18.4392,0
80.7943,4.9767,0.0363,3.1092,18.2166,0
79.7733,5.0099,0.0362,3.1091,18.3453,0
78.7377,5.0437,0.0361,3.1091,18.7409,0
77.6613,5.0788,0.0357,3.1089,19.9040,0
76.4957,5.1169,0.0351,3.1088,21.7125,0
75.2308,5.1583,0.0348,3.1088,23.5241,0
74.2211,5.1915,0.0348,3.1087,24.4174,0
73.2048,5.2249,0.0354,3.1087,24.4101,0
72.1914,5.2579,0.0358,3.1089,24.2906,0
71.1800,5.2897,0.0361,3.1096,24.2873,0
70.1034,5.3225,0.0352,3.1105,26.9484,0
68.9381,5.3470,0.0345,3.1169,28.7010,0
67.7094,5.3575,0.0345,3.1285,30.0422,0
66.4365,5.3630,0.0347,3.1359,30.8805,0
65.1469,5.3573,0.0352,-3.1393,30.8966,0
63.8719,5.3511,0.0359,-3.1364,30.3399,0
62.6229,5.3446,0.0364,-3.1361,29.7251,0
61.3895,5.3378,0.0365,-3.1360,29.6097,0
60.1489,5.3308,0.0363,-3.1360,29.9266,0
58.8918,5.3238,0.0360,-3.1360,30.3721,0
57.6241,5.3168,0.0360,-3.1361,30.3779,0
56.3595,5.3098,0.0361,-3.1361,30.3261,0
55.0983,5.3028,0.0362,-3.1361,30.2289,0
53.8494,5.2959,0.0365,-3.1360,29.2145,0
52.6868,5.2895,0.0375,-3.1360,27.0243,0
51.5939,5.2834,0.0379,-3.1359,25.7387,0
50.5349,5.2773,0.0376,-3.1359,25.2426,0
49.4776,5.2713,0.0369,-3.1359,25.5397,0
48.4037,5.2652,0.0363,-3.1359,25.9836,0
47.3020,5.2589,0.0359,-3.1359,26.8072,0
46.1667,5.2525,0.0355,-3.1360,27.6318,0
44.9887,5.2458,0.0353,-3.1360,28.7972,0
43.7598,5.2390,0.0350,-3.1361,30.0850,0
42.4745,5.2318,0.0348,-3.1361,31.2172,0
41.1777,5.2247,0.0353,-3.1361,31.0858,0
39.8840,5.2176,0.0358,-3.1361,31.0253,0
38.5937,5.2106,0.0361,-3.1361,30.9348,0
37.2501,5.2032,0.0353,-3.1362,33.5052,0
35.7920,5.1953,0.0343,-3.1363,36.0893,0
34.7657,5.1898,0.0339,-3.1364,37.5025,0
33.7058,5.1842,0.0339,-3.1364,38.5764,0
32.6215,5.1785,0.0341,-3.1365,39.3278,0
31.5208,5.1728,0.0344,-3.1365,39.8197,0
30.4098,5.1672,0.0348,-3.1365,40.1172,0
29.2930,5.1615,0.0352,-3.1365,40.2565,0
28.1756,5.1558,0.0355,-3.1365,40.1903,0
27.0630,5.1502,0.0358,-3.1365,39.9523,0
25.9589,5.1446,0.0362,-3.1365,39.6035,0
24.8656,5.1391,0.0364,-3.1365,39.1887,0
23.7845,5.1337,0.0366,-3.1365,38.7392,0
22.7159,5.1282,0.0368,-3.1365,38.2823,0
21.6578,5.1228,0.0368,-3.1365,38.0472,0
20.6020,5.1174,0.0367,-3.1365,37.9755,0
19.5482,5.1120,0.0366,-3.1365,37.9076,0
18.4963,5.1066,0.0365,-3.1365,37.8399,0
17.4462,5.1012,0.0364,-3.1365,37.7724,0
16.4089,5.0959,0.0366,-3.1364,36.5623,0
14.9564,5.0885,0.0379,-3.1363,33.6868,0
13.5990,5.0814,0.0384,-3.1362,31.8586,0
12.2943,5.0744,0.0381,-3.1362,30.9976,0
11.0073,5.0675,0.0374,-3.1362,30.8728,0
9.7137,5.0605,0.0367,-3.1362,31.2155,0
8.3984,5.0534,0.0361,-3.1362,31.8750,0
7.0499,5.0461,0.0357,-3.1363,32.7709,0
5.6602,5.0387,0.0353,-3.1363,33.8277,0
4.2241,5.0311,0.0351,-3.1363,34.9842,0
2.7395,5.0232,0.0350,-3.1364,35.9881,0
1.2416,5.0154,0.0354,-3.1364,35.9150,0
-0.2524,5.0077,0.0358,-3.1364,35.8192,0
-1.7424,5.0000,0.0361,-3.1364,35.7243,0
-2.7427,4.9948,0.0360,-3.1364,36.6151,0
-3.7884,4.9893,0.0352,-3.1365,38.3300,0
-4.8786,4.9837,0.0346,-3.1366,39.8443,0
-6.0073,4.9780,0.0342,-3.1366,41.1551,0
-7.1693,4.9722,0.0341,-3.1367,42.2903,0
-8.3603,4.9663,0.0342,-3.1367,43.2764,0
-9.5765,4.9603,0.0343,-3.1368,44.1376,0
-10.8149,4.9543,0.0344,-3.1368,44.8951,0
-12.0730,4.9483,0.0346,-3.1369,45.5654,0
-13.3479,4.9423,0.0348,-3.1369,46.1180,0
-14.6353,4.9362,0.0350,-3.1370,46.4953,0
-15.9302,4.9302,0.0352,-3.1370,46.6743,0
-17.2227,4.9242,0.0356,-3.1370,46.3685,0
-18.4992,4.9183,0.0361,-3.1370,45.6342,0
-19.7509,4.9126,0.0366,-3.1369,44.6455,0
-20.9755,4.9069,0.0371,-3.1369,43.9076,0
-22.1939,4.9012,0.0370,-3.1369,43.8308,0
-23.4103,4.8954,0.0368,-3.1369,43.7502,0
-24.6244,4.8897,0.0367,-3.1369,43.6699,0
-25.8362,4.8840,0.0365,-3.1369,43.5897,0
-27.0394,4.8783,0.0366,-3.1368,42.6194,0
-28.1788,4.8729,0.0376,-3.1368,39.9213,0
-29.2440,4.8678,0.0387,-3.1366,37.2793,0
-30.7071,4.8607,0.0399,-3.1365,33.4397,0
-32.0145,4.8541,0.0404,-3.1363,29.7703,0
-33.1737,4.8480,0.0406,-3.1362,26.2950,0
-34.1932,4.8425,0.0406,-3.1361,23.0390,0
-35.3585,4.8361,0.0402,-3.1360,19.4042,0
-36.3878,4.8303,0.0403,-3.1357,18.0599,0
-37.4136,4.8249,0.0426,-3.1358,19.1113,0
-38.5372,4.8180,0.0449,-3.1359,21.2968,0
-39.7635,4.8111,0.0526,-3.1358,22.4299,0
-40.9929,4.8040,0.0581,-3.1358,22.3414,0
-42.2168,4.7967,0.0660,-3.1358,22.2383,0
-43.5686,4.7886,0.0657,-3.1359,26.1277,0
-44.7162,4.7826,0.0659,-3.1360,28.6450,0
-45.9650,4.7754,0.0658,-3.1361,30.9667,0
-47.3009,4.7680,0.0661,-3.1362,32.9199,0
-48.7127,4.7604,0.0657,-3.1363,34.6161,0
-50.1880,4.7526,0.0653,-3.1364,35.9899,0
-51.1988,4.7472,0.0651,-3.1364,36.6480,0
-52.2220,4.7419,0.0650,-3.1364,36.9136,0
-53.2448,4.7366,0.0651,-3.1364,36.7135,0
-54.2563,4.7313,0.0653,-3.1364,36.1890,0
-55.7368,4.7213,0.0656,-3.1351,34.9682,0
-57.1813,4.7023,0.0638,-3.1297,34.6592,0
-58.6209,4.6748,0.0513,-3.1233,34.6047,0
-60.0600,4.6379,0.0468,-3.1166,34.5193,0
-61.4871,4.5917,0.0359,-3.1098,33.1460,0
-62.7789,4.5419,0.0357,-3.1038,29.3648,0
-63.9177,4.4959,0.0378,-3.1014,25.8177,0
-65.2179,4.4435,0.0394,-3.1010,21.4398,0
-66.2921,4.3999,0.0398,-3.1008,17.5135,0
-67.3641,4.3562,0.0387,-3.1007,13.6428,0
-68.4720,4.3120,0.0381,-3.1013,9.6462,0
-69.4776,4.2910,0.0365,-3.1123,8.9614,0
-70.5133,4.2998,0.0355,-3.1330,9.8585,0
-71.5367,4.2953,0.0352,-3.1351,11.1289,0
-72.7025,4.2877,0.0350,-3.1351,12.9466,0
-73.8898,4.2800,0.0345,-3.1352,15.5365,0
-75.0620,4.2725,0.0342,-3.1353,18.0658,0
-76.1269,4.2658,0.0350,-3.1353,19.9889,0
-77.3036,4.2584,0.0347,-3.1354,21.9989,0
-78.5891,4.2503,0.0346,-3.1354,23.9393,0
-79.6163,4.2440,0.0347,-3.1355,24.8230,0
-80.6498,4.2377,0.0353,-3.1355,24.8114,0
-81.6806,4.2314,0.0358,-3.1355,24.6941,0
-82.7091,4.2251,0.0361,-3.1355,24.6868,0
-83.8035,4.2184,0.0352,-3.1355,27.4270,0
-84.9978,4.2111,0.0344,-3.1356,29.5952,0
-86.2763,4.2035,0.0341,-3.1357,31.4745,0
-87.6226,4.1955,0.0342,-3.1358,32.9378,0
-89.0220,4.1874,0.0345,-3.1358,34.0514,0
-90.4594,4.1791,0.0348,-3.1359,34.8244,0
-91.9238,4.1707,0.0351,-3.1359,35.3878,0
-93.4086,4.1622,0.0354,-3.1359,35.8310,0
-94.9103,4.1537,0.0356,-3.1359,36.2053,0
-95.9196,4.1480,0.0356,-3.1360,36.4309,0
-96.9346,4.1423,0.0357,-3.1360,36.5712,0
-97.9496,4.1365,0.0359,-3.1360,36.5156,0
-98.9628,4.1308,0.0360,-3.1360,36.4515,0
-99.9742,4.1252,0.0361,-3.1360,36.3870,0
-100.9839,4.1195,0.0362,-3.1360,36.3225,0
-101.9917,4.1138,0.0362,-3.1360,36.2581,0
-103.4269,4.1058,0.0374,-3.1359,33.0278,0
-104.7272,4.0984,0.0387,-3.1358,29.8001,0
-105.8958,4.0916,0.0394,-3.1356,26.6856,0
-106.9384,4.0855,0.0398,-3.1355,23.7307,0
-108.1466,4.0782,0.0398,-3.1354,20.2125,0
-109.1676,4.0719,0.0390,-3.1353,17.0504,0
-110.2595,4.0651,0.0378,-3.1353,14.9335,0
-111.3043,4.0585,0.0364,-3.1353,15.4675,0
-112.4438,4.0513,0.0351,-3.1353,17.3033,0
-113.4593,4.0449,0.0354,-3.1354,19.1405,0
-114.5817,4.0379,0.0350,-3.1354,21.2341,0
-115.8197,4.0303,0.0346,-3.1355,23.3454,0
-117.1334,4.0223,0.0351,-3.1355,23.6188,0
-118.4444,4.0143,0.0358,-3.1355,23.5384,0
-119.7625,4.0065,0.0358,-3.1357,24.6540,0
-120.8497,4.0021,0.0348,-3.1369,27.1659,0
-122.0353,4.0003,0.0341,-3.1391,29.3698,0
-123.2970,4.0012,0.0341,3.1415,30.9349,0
-124.6102,4.0054,0.0344,3.1389,31.8624,0
-125.9412,4.0127,0.0351,3.1366,31.9068,0
-127.2568,4.0202,0.0359,3.1358,31.2441,0
-128.5334,4.0276,0.0366,3.1357,30.1238,0
-129.7572,4.0349,0.0372,3.1357,28.7654,0
-130.9224,4.0417,0.0376,3.1358,27.3350,0
-132.0296,4.0481,0.0377,3.1358,26.2089,0
-133.1168,4.0544,0.0373,3.1358,25.9609,0
-134.2022,4.0606,0.0368,3.1358,26.1184,0
-135.2836,4.0668,0.0365,3.1358,25.8128,0
-136.3240,4.0728,0.0371,3.1359,23.5359,0
-137.4978,4.0796,0.0388,3.1360,19.4863,0
-138.4987,4.0851,0.0381,3.1361,17.2368,0
-139.6875,4.0917,0.0366,3.1361,17.3597,0
-140.6878,4.0972,0.0362,3.1361,18.6247,0
-141.7731,4.1032,0.0356,3.1360,20.4483,0
-142.9625,4.1098,0.0349,3.1360,22.4230,0
-144.2628,4.1171,0.0347,3.1359,24.1430,0
-145.5916,4.1247,0.0354,3.1359,24.0646,0
-146.9161,4.1322,0.0360,3.1359,23.9857,0
-147.9319,4.1380,0.0356,3.1359,25.4211,0
-149.0561,4.1444,0.0345,3.1358,28.1297,0
-150.2818,4.1515,0.0339,3.1357,30.4141,0
-151.6000,4.1593,0.0338,3.1356,32.5745,0
-153.0036,4.1677,0.0338,3.1355,34.5591,0
-154.4859,4.1767,0.0339,3.1354,36.3462,0
-155.5117,4.1830,0.0341,3.1354,37.3259,0
-156.5610,4.1895,0.0343,3.1353,38.0611,0
-157.6250,4.1961,0.0346,3.1353,38.4151,0
-158.6895,4.2028,0.0351,3.1353,38.1997,0
-159.7405,4.2095,0.0357,3.1353,37.5643,0
-160.7698,4.2159,0.0364,3.1353,36.6918,0
-161.7726,4.2223,0.0369,3.1354,35.6871,0
-163.2592,4.2315,0.0369,3.1354,35.5608,0
-164.7175,4.2406,0.0371,3.1354,34.0201,0
-166.0284,4.2488,0.0387,3.1356,29.2717,0
-167.1158,4.2554,0.0406,3.1358,23.3866,0
-168.1652,4.2616,0.0416,3.1362,15.1800,0
-169.2214,4.2674,0.0342,3.1364,4.4383,0
-170.2291,4.2726,0.0345,3.1364,8.3842,0
-171.2882,4.2781,0.0348,3.1364,10.4620,0
-172.3745,4.2838,0.0350,3.1363,11.7842,0
-173.4014,4.2892,0.0351,3.1363,12.7958,0
-174.5102,4.2950,0.0352,3.1363,13.7493,0
-175.6948,4.2892,0.0352,-3.1402,14.6248,0
-176.7358,4.2668,0.0353,-3.1287,15.3038,0
-177.8187,4.2090,0.0354,-3.1045,15.8539,0
-178.9330,4.0847,0.0403,-3.0597,16.3160,0
-180.0687,3.8922,0.0495,-3.0061,16.7344,0
-181.2202,3.6259,0.0505,-2.9481,17.2266,0
-182.3867,3.3041,0.0608,-2.8994,17.6334,0
-183.5597,2.9108,0.0634,-2.8455,17.9481,0
-184.4886,2.5293,0.0640,-2.7922,18.1194,0
-185.3936,2.0816,0.0639,-2.7288,18.1831,0
-186.2635,1.5699,0.0639,-2.6591,18.1124,0
-187.0940,0.9930,0.0640,-2.5871,18.1874,0
-187.8816,0.3555,0.0642,-2.5130,17.9082,0
-188.6228,-0.3376,0.0641,-2.4414,18.3590,0
-189.3196,-1.0868,0.0642,-2.3689,17.9640,0
-189.9532,-1.8857,0.0640,-2.2943,18.2892,0
-190.5219,-2.7226,0.0639,-2.2201,18.3165,0
-191.0282,-3.6002,0.0635,-2.1460,17.9973,0
-191.4676,-4.5232,0.0632,-2.0699,18.6482,0
-191.8400,-5.4909,0.0629,-1.9909,18.5421,0
-192.1240,-6.4687,0.0625,-1.9096,18.4484,0
-192.3243,-7.4715,0.0621,-1.8252,18.0929,0
-192.4356,-8.4830,0.0614,-1.7406,18.4363,0
-192.4630,-9.4976,0.0641,-1.6559,18.0668,0
-192.4031,-10.5189,0.0688,-1.5713,18.1764,0
-192.2872,-11.5300,0.0722,-1.5033,18.5513,0
-192.1952,-12.5602,0.0807,-1.4891,18.5402,0
-192.1387,-13.5618,0.0856,-1.5027,17.7847,0
-192.1937,-14.7108,0.0900,-1.5756,15.2929,0
-192.3707,-15.8250,0.0940,-1.6681,11.9270,0
-192.5699,-16.8063,0.0933,-1.7216,8.8980,0
-192.6758,-17.8627,0.0925,-1.6890,5.3163,0
-192.5941,-18.8675,0.0906,-1.5824,4.1811,0
-192.4345,-19.9130,0.0906,-1.4959,6.9358,0
-192.3091,-21.0061,0.0911,-1.4759,7.3480,0
-192.2102,-22.0451,0.0911,-1.4759,7.8385,0
-192.1091,-23.1062,0.0907,-1.4759,9.2828,0
-192.0028,-24.2228,0.0905,-1.4759,10.9010,0
-191.8913,-25.3940,0.0901,-1.4759,13.4106,0
-191.7963,-26.4007,0.0899,-1.4764,15.4741,0
-191.7043,-27.5270,0.0900,-1.4844,16.8784,0
-191.6484,-28.7325,0.0904,-1.5105,17.7021,0
-191.6409,-29.9609,0.0910,-1.5460,17.4645,0
-191.6588,-31.1386,0.0916,-1.5711,16.4759,0
-191.6612,-32.2472,0.0918,-1.5724,15.5985,0
-191.6617,-33.3152,0.0916,-1.5718,15.2516,0
-191.6628,-34.3718,0.0914,-1.5718,15.2253,0
-191.6639,-35.4377,0.0912,-1.5718,15.4977,0
-191.6651,-36.5367,0.0909,-1.5718,16.1624,0
-191.6663,-37.6984,0.0906,-1.5718,17.3590,0
-191.6673,-38.7093,0.0910,-1.5719,18.9639,0
-191.6685,-39.8217,0.0906,-1.5719,20.8702,0
-191.6699,-41.0533,0.0901,-1.5720,22.7538,0
-191.6715,-42.3253,0.0908,-1.5720,22.6715,0
-191.6732,-43.5931,0.0914,-1.5720,22.5925,0
-191.6748,-44.8870,0.0911,-1.5721,24.4827,0
-191.6761,-45.9592,0.0902,-1.5721,26.5257,0
-191.6776,-47.0884,0.0901,-1.5722,27.4703,0
-191.6792,-48.2464,0.0904,-1.5722,27.9546,0
-191.6807,-49.4029,0.0911,-1.5722,27.4789,0
-191.6823,-50.5260,0.0918,-1.5722,26.5121,0
-191.6838,-51.6004,0.0925,-1.5721,25.1912,0
-191.6852,-52.6220,0.0929,-1.5721,24.0065,0
-191.6869,-53.9006,0.0931,-1.5720,22.3241,0
-191.6882,-55.0894,0.0931,-1.5722,21.0565,0
-191.6896,-56.2503,0.0924,-1.5722,20.9563,0
-191.6910,-57.4070,0.0920,-1.5722,20.8865,0
-191.6923,-58.5060,0.0927,-1.5723,18.4503,0
-191.6938,-59.7143,0.0920,-1.5716,17.2696,0
-191.6947,-60.9628,0.0917,-1.5716,18.7403,0
-191.6956,-62.0523,0.0910,-1.5716,20.2569,0
-191.6965,-63.2356,0.0905,-1.5717,21.9726,0
-191.6977,-64.4968,0.0905,-1.5717,22.9370,0
-191.6988,-65.7560,0.0914,-1.5717,22.0383,0
-191.7001,-66.9213,0.0926,-1.5715,19.8156,0
-191.7010,-67.9454,0.0929,-1.5712,17.1650,0
-191.7015,-69.0096,0.0932,-1.5711,13.7629,0
-191.7019,-70.1463,0.0933,-1.5711,10.0116,0
-191.7021,-71.1621,0.0926,-1.5709,6.9436,0
-191.7020,-72.2633,0.0908,-1.5710,8.2798,0
-191.6935,-73.2942,0.0904,-1.5662,10.1903,0
-191.6486,-74.3672,0.0904,-1.5443,11.7952,0
-191.5387,-75.3963,0.0905,-1.4994,12.9130,0
-191.3610,-76.5007,0.0907,-1.4473,13.8075,0
-191.1231,-77.6617,0.0868,-1.3984,14.5955,0
-190.8939,-78.6708,0.0778,-1.3696,15.2139,0
-190.6294,-79.7093,0.0752,-1.3413,15.5983,0
-190.2992,-80.7575,0.0722,-1.2960,15.9445,0
-189.9097,-81.8124,0.0659,-1.2475,16.2678,0
-189.4535,-82.8591,0.0692,-1.1935,16.5478,0
-188.9337,-83.8960,0.0744,-1.1386,16.7876,0
-188.3410,-84.9101,0.0792,-1.0774,16.9771,0
-187.6715,-85.8895,0.0827,-1.0095,17.1223,0
-186.9176,-86.8183,0.0837,-0.9321,17.2562,0
-186.0763,-87.6796,0.0861,-0.8448,17.3172,0
-185.1460,-88.4538,0.0847,-0.7469,17.3662,0
-184.1320,-89.1211,0.0846,-0.6396,17.4319,0
-183.0450,-89.6732,0.0846,-0.5289,17.5397,0
-181.9018,-90.1276,0.0845,-0.4300,17.7289,0
-180.7161,-90.4850,0.0762,-0.3396,17.9308,0
-179.7386,-90.7048,0.0607,-0.2722,18.1636,0
-178.7442,-90.8649,0.0587,-0.2064,18.0432,0
-177.7387,-90.9726,0.0472,-0.1477,18.0261,0
-176.7314,-91.0432,0.0335,-0.1029,17.9572,0
-175.7262,-91.0999,0.0338,-0.0757,18.1224,0
-174.4844,-91.1697,0.0347,-0.0623,17.4669,0
-173.3574,-91.2379,0.0364,-0.0610,15.0469,0
-172.2385,-91.3061,0.0372,-0.0608,12.5364,0
-171.1517,-91.3439,0.0359,-0.0454,13.6933,0
-169.9564,-91.3483,0.0352,-0.0193,14.8574,0
-168.8957,-91.3362,0.0352,-0.0017,15.6266,0
-167.7691,-91.3346,0.0350,0.0002,16.8885,0
-166.5277,-91.3344,0.0354,0.0002,18.7950,0
-165.4330,-91.3342,0.0353,0.0001,20.5890,0
-164.2399,-91.3341,0.0349,0.0001,22.4322,0
-162.9444,-91.3340,0.0348,-0.0000,23.7325,0
-161.6273,-91.3340,0.0355,-0.0000,23.6493,0
-160.3144,-91.3340,0.0360,-0.0000,23.5692,0
-159.2971,-91.3339,0.0355,-0.0000,25.5441,0
-158.1664,-91.3340,0.0344,-0.0001,28.3118,0
-156.9367,-91.3341,0.0339,-0.0002,30.3447,0
-155.6459,-91.3344,0.0342,-0.0003,31.2389,0
-154.3535,-91.3347,0.0352,-0.0003,30.7299,0
-153.0983,-91.3351,0.0362,-0.0003,29.6163,0
-151.8957,-91.3354,0.0370,-0.0002,28.2650,0
-150.7508,-91.3357,0.0375,-0.0002,26.8592,0
-149.6649,-91.3359,0.0377,-0.0001,25.4199,0
-148.6363,-91.3360,0.0378,-0.0001,24.1373,0
-147.3309,-91.3361,0.0375,-0.0000,23.5438,0
-146.0352,-91.3361,0.0368,-0.0000,23.4672,0
-144.7440,-91.3361,0.0365,-0.0000,23.3907,0
-143.5907,-91.3362,0.0380,0.0001,18.9926,0
-142.4280,-91.3361,0.0380,0.0002,15.1154,0
-141.3310,-91.3166,0.0380,0.0114,11.5508,0
-140.2736,-91.2461,0.0375,0.0435,8.1566,0
-139.2084,-91.1009,0.0356,0.0958,9.4538,0
-138.1997,-90.9038,0.0349,0.1490,11.6211,0
-137.1727,-90.6440,0.0347,0.2049,13.6326,0
-136.2093,-90.3470,0.0347,0.2571,15.2174,0
-135.1634,-89.9675,0.0348,0.3116,16.6524,0
-134.0536,-89.4999,0.0349,0.3676,17.8782,0
-133.1347,-89.0563,0.0359,0.4151,18.6590,0
-132.2052,-88.5436,0.0359,0.4695,19.2106,0
-131.2977,-87.9701,0.0361,0.5282,19.1645,0
-130.4222,-87.3419,0.0362,0.5872,19.3596,0
-129.5759,-86.6502,0.0361,0.6491,19.6751,0
-128.7649,-85.8906,0.0361,0.7155,20.0041,0
-128.0011,-85.0604,0.0361,0.7880,20.2659,0
-127.3092,-84.1525,0.0362,0.8742,20.5016,0
-126.6937,-83.1742,0.0362,0.9640,20.7592,0
-126.1628,-82.1321,0.0363,1.0552,20.9914,0
-125.7235,-81.0341,0.0363,1.1468,21.2528,0
-125.3701,-79.8912,0.0363,1.2321,21.5206,0
-125.0949,-78.7140,0.0362,1.3079,21.7040,0
-124.8962,-77.5217,0.0364,1.3762,21.3035,0
-124.7546,-76.3952,0.0372,1.4235,19.3356,0
-124.6481,-75.3992,0.0374,1.4488,16.8700,0
-124.5503,-74.3499,0.0376,1.4658,13.7044,0
-124.4557,-73.2198,0.0378,1.4789,9.9140,0
-124.3885,-72.1671,0.0360,1.4948,10.3906,0
-124.3452,-71.1480,0.0343,1.5131,14.0539,0
-124.3137,-70.0415,0.0336,1.5304,17.5964,0
-124.2871,-68.9775,0.0343,1.5394,20.4209,0
-124.2513,-67.8243,0.0350,1.5398,20.7842,0
-124.2157,-66.6753,0.0358,1.5398,20.7145,0
-124.1800,-65.5217,0.0359,1.5398,21.4636,0
-124.1401,-64.2344,0.0348,1.5397,24.1115,0
-124.1081,-63.2014,0.0347,1.5397,25.3028,0
-124.0746,-62.1258,0.0348,1.5397,26.2931,0
-124.0434,-60.9995,0.0348,1.5417,27.6484,0
-124.0231,-59.8187,0.0348,1.5496,28.9133,0
-124.0143,-58.5827,0.0347,1.5600,30.2409,0
-124.0287,-57.2960,0.0348,1.5764,31.3763,0
-124.0658,-55.9661,0.0349,1.5946,32.3421,0
-124.1040,-54.6014,0.0351,1.6002,33.0799,0
-124.1446,-53.2162,0.0354,1.6008,33.2569,0
-124.1861,-51.8331,0.0358,1.6009,33.1787,0
-124.2277,-50.4535,0.0361,1.6009,33.0906,0
-124.2690,-49.0821,0.0363,1.6009,32.3593,0
-124.3078,-47.7957,0.0374,1.6010,29.8416,0
-124.3429,-46.5991,0.0381,1.6006,27.9407,0
-124.3708,-45.4697,0.0382,1.5974,26.5173,0
-124.3906,-44.3901,0.0380,1.5922,25.4837,0
-124.3991,-43.3484,0.0376,1.5839,24.6060,0
-124.3983,-42.3351,0.0373,1.5751,24.1108,0
-124.3969,-41.0189,0.0370,1.5706,23.4701,0
-124.3968,-39.7317,0.0368,1.5705,23.1671,0
-124.3966,-38.4404,0.0363,1.5705,23.5271,0
-124.3963,-37.1088,0.0358,1.5706,24.5694,0
-124.3961,-36.0619,0.0354,1.5705,25.6112,0
-124.3958,-34.9972,0.0356,1.5705,25.5073,0
-124.3956,-33.9350,0.0359,1.5705,25.4905,0
-124.3953,-32.8757,0.0361,1.5705,25.3768,0
-124.3950,-31.7857,0.0356,1.5705,27.2378,0
