x,y,z,yaw,velocity,change_flag
220.3888,-133.3343,0.0364,0.0039,0,0
221.4553,-133.3303,0.0346,0.0035,6.9909,0
222.6055,-133.3263,0.0350,0.0035,9.2670,0
223.7048,-133.3224,0.0352,0.0035,10.5118,0
224.8044,-133.3185,0.0350,0.0035,12.1030,0
225.8794,-133.3148,0.0349,0.0034,13.6101,0
227.2895,-133.3100,0.0349,0.0034,15.2994,0
228.6240,-133.3054,0.0350,0.0034,16.6259,0
230.0554,-133.3006,0.0351,0.0034,17.5633,0
231.5212,-133.2956,0.0356,0.0033,17.4586,0
232.7142,-133.2916,0.0359,0.0034,16.9165,0
234.0919,-133.2870,0.0361,0.0034,16.1940,0
235.4128,-133.2826,0.0361,0.0034,15.6040,0
236.4935,-133.2789,0.0359,0.0034,15.6152,0
237.8179,-133.2744,0.0356,0.0034,16.1912,0
239.2022,-133.2697,0.0354,0.0034,17.0212,0
240.6644,-133.2649,0.0352,0.0033,18.0273,0
241.6862,-133.2615,0.0361,0.0033,18.5832,0
242.7449,-133.2579,0.0359,0.0033,19.2517,0
244.1113,-133.2533,0.0358,0.0031,19.8717,0
245.2115,-133.2497,0.0360,0.0031,19.9732,0
246.3216,-133.2461,0.0361,0.0031,20.1693,0
247.4409,-133.2424,0.0361,0.0031,20.2914,0
248.8454,-133.2381,0.0362,0.0033,20.1615,0
250.2536,-133.2334,0.0362,0.0030,20.3738,0
251.6600,-133.2291,0.0362,0.0033,20.1361,0
252.7813,-133.2255,0.0363,0.0033,20.0384,0
253.8969,-133.2220,0.0363,0.0033,19.9408,0
255.2859,-133.2175,0.0363,0.0030,20.0600,0
256.3930,-133.2140,0.0363,0.0030,19.9955,0
257.7709,-133.2099,0.0363,0.0033,19.7060,0
259.1427,-133.2054,0.0363,0.0029,19.7891,0
260.5041,-133.2014,0.0363,0.0032,19.4421,0
261.5862,-133.1981,0.0363,0.0032,19.3135,0
262.6607,-133.1949,0.0364,0.0032,19.1742,0
263.7275,-133.1916,0.0364,0.0032,19.0330,0
264.7860,-133.1884,0.0364,0.0032,18.8676,0
266.0916,-133.1842,0.0364,0.0028,18.6993,0
267.3629,-133.1806,0.0364,0.0032,18.2281,0
268.6334,-133.1767,0.0364,0.0034,17.9592,0
269.9123,-133.1725,0.0362,0.0036,18.3508,0
271.1949,-133.1680,0.0362,0.0032,18.6686,0
272.2357,-133.1644,0.0361,0.0032,19.0069,0
273.5657,-133.1602,0.0359,0.0034,19.2817,0
274.9304,-133.1555,0.0359,0.0031,19.9687,0
276.0454,-133.1519,0.0359,0.0031,20.3388,0
277.1807,-133.1482,0.0359,0.0031,20.6863,0
278.3327,-133.1445,0.0359,0.0031,20.9299,0
279.7867,-133.1400,0.0360,0.0033,20.9434,0
281.2534,-133.1352,0.0361,0.0030,21.2410,0
282.7119,-133.1308,0.0363,0.0033,20.6990,0
284.1237,-133.1261,0.0367,0.0029,19.9523,0
285.1986,-133.1227,0.0369,0.0029,19.0174,0
286.4726,-133.1189,0.0368,0.0034,18.1468,0
287.7299,-133.1147,0.0365,0.0037,17.9611,0
288.7310,-133.1111,0.0359,0.0037,17.9768,0
289.9742,-133.1065,0.0355,0.0037,17.8179,0
291.4398,-133.1011,0.0359,0.0037,17.2669,0
292.5982,-133.0968,0.0363,0.0037,16.0833,0
293.8524,-133.0922,0.0368,0.0038,14.0972,0
295.1086,-133.0875,0.0369,0.0038,11.9066,0
296.3058,-133.0829,0.0368,0.0038,9.7623,0
297.3077,-133.0791,0.0364,0.0039,8.6699,0
298.3363,-133.0751,0.0353,0.0038,10.1654,0
299.4255,-133.0709,0.0349,0.0038,12.1018,0
300.6850,-133.0661,0.0349,0.0038,13.6302,0
301.8573,-133.0617,0.0352,0.0038,14.3806,0
302.8624,-133.0579,0.0355,0.0037,14.4557,0
304.0477,-133.0535,0.0359,0.0038,13.9468,0
305.3502,-133.0486,0.0362,0.0038,12.8377,0
306.5336,-133.0441,0.0364,0.0038,11.5639,0
307.5833,-133.0401,0.0365,0.0038,10.0571,0
308.7083,-133.0358,0.0366,0.0039,8.0100,0
309.7718,-133.0318,0.0364,0.0039,6.1372,0
310.7842,-133.0278,0.0361,0.0038,5.1663,0
311.7887,-133.0239,0.0361,0.0038,3.9369,0
312.8554,-133.0197,0.0351,0.0039,6.3821,0
313.9073,-133.0157,0.0350,0.0038,8.5638,0
315.0815,-133.0112,0.0351,0.0038,10.1213,0
316.1154,-133.0072,0.0353,0.0038,11.0365,0
317.2113,-133.0031,0.0355,0.0038,11.3131,0
318.2644,-132.9991,0.0361,0.0038,10.2529,0
319.3139,-132.9951,0.0364,0.0038,8.8014,0
320.3393,-132.9912,0.0363,0.0039,7.6484,0
321.3907,-132.9871,0.0363,0.0038,6.1082,0
322.4714,-132.9830,0.0355,0.0039,6.1806,0
323.5850,-132.9787,0.0351,0.0038,8.2542,0
324.6821,-132.9745,0.0354,0.0038,9.1995,0
325.7522,-132.9704,0.0354,0.0038,10.0336,0
326.7539,-132.9666,0.0355,0.0038,10.4376,0
328.0246,-132.9597,0.0360,0.0050,9.6746,0
329.1356,-132.9239,0.0363,0.0216,8.1649,0
330.2216,-132.8280,0.0365,0.0605,6.1104,0
331.2226,-132.6521,0.0364,0.1223,3.0461,0
332.2716,-132.3650,0.0357,0.2043,4.2784,0
333.2079,-131.9944,0.0362,0.2971,1.9560,0
334.1137,-131.5067,0.0353,0.4035,3.9068,0
334.9576,-130.9256,0.0357,0.5109,4.7498,0
335.8029,-130.1853,0.0358,0.6304,4.7145,0
336.4815,-129.4397,0.0358,0.7378,4.8863,0
337.0880,-128.6076,0.0358,0.8472,4.8948,0
337.6040,-127.7131,0.0358,0.9555,4.9122,0
338.0227,-126.7691,0.0358,1.0626,4.9085,0
338.3303,-125.7877,0.0358,1.1730,4.8683,0
338.5272,-124.7831,0.0358,1.2826,4.8769,0
338.6204,-123.6871,0.0358,1.3972,4.9365,0
338.6372,-122.6392,0.0358,1.4812,5.0743,0
338.6542,-121.5728,0.0358,1.5205,5.1464,0
338.6671,-120.5669,0.0358,1.5404,5.2330,0
338.6630,-119.5626,0.0355,1.5588,6.0967,0
338.6480,-118.3958,0.0352,1.5725,7.9613,0
338.6459,-117.3144,0.0353,1.5726,9.2412,0
338.6440,-116.2320,0.0353,1.5725,10.1839,0
338.6423,-115.2066,0.0354,1.5725,10.8403,0
338.6405,-113.9729,0.0355,1.5725,11.3096,0
338.6388,-112.8547,0.0356,1.5725,11.6806,0
338.6371,-111.7004,0.0356,1.5725,12.0436,0
338.6357,-110.6849,0.0356,1.5725,12.3015,0
338.6337,-109.6508,0.0356,1.5725,12.4970,0
338.6316,-108.6034,0.0357,1.5725,12.6231,0
338.6291,-107.3710,0.0357,1.5725,12.7200,0
338.6270,-106.3083,0.0357,1.5725,12.7662,0
338.6249,-105.2481,0.0358,1.5725,12.6629,0
338.6228,-104.2000,0.0358,1.5725,12.5039,0
338.6207,-103.1642,0.0359,1.5725,12.3665,0
338.6193,-102.1390,0.0358,1.5725,12.2496,0
338.6176,-100.9532,0.0358,1.5725,12.1552,0
338.6160,-99.7747,0.0358,1.5725,12.0935,0
338.6143,-98.6017,0.0358,1.5725,12.0417,0
338.6129,-97.6000,0.0358,1.5725,12.0023,0
338.6111,-96.2691,0.0358,1.5725,11.9558,0
338.6094,-95.1086,0.0358,1.5725,11.9201,0
338.6078,-93.9514,0.0358,1.5725,11.8886,0
338.6061,-92.7970,0.0358,1.5725,11.8607,0
338.6045,-91.6445,0.0358,1.5725,11.8577,0
338.6026,-90.3251,0.0358,1.5725,11.8907,0
338.6010,-89.1676,0.0358,1.5725,11.9191,0
338.5993,-88.0075,0.0358,1.5725,11.9445,0
338.5977,-86.8451,0.0358,1.5725,11.9671,0
338.5960,-85.6806,0.0358,1.5725,11.9870,0
338.5942,-84.3477,0.0358,1.5725,11.9933,0
338.5925,-83.1895,0.0358,1.5725,11.7906,0
338.5909,-82.0678,0.0360,1.5725,11.2322,0
338.5891,-80.8835,0.0362,1.5725,10.0879,0
338.5872,-79.8233,0.0362,1.5725,9.0925,0
338.5851,-78.7636,0.0363,1.5726,7.8385,0
338.5833,-77.6375,0.0364,1.5727,5.6704,0
338.5815,-76.5966,0.0359,1.5725,4.7619,0
338.5798,-75.5661,0.0354,1.5725,6.2204,0
338.5777,-74.3928,0.0354,1.5725,7.6008,0
338.5754,-73.3050,0.0356,1.5725,7.9870,0
338.5733,-72.2923,0.0357,1.5726,8.1798,0
338.5710,-71.1845,0.0359,1.5726,7.6722,0
338.5689,-70.1685,0.0360,1.5726,6.9994,0
338.5675,-69.1588,0.0360,1.5725,6.2333,0
338.5660,-68.0818,0.0359,1.5726,5.8510,0
338.5587,-67.0473,0.0359,1.5760,5.4824,0
338.4999,-66.0232,0.0361,1.6056,4.3399,0
338.3647,-64.9974,0.0356,1.6583,4.4587,0
338.1609,-63.9609,0.0356,1.7169,5.5199,0
337.8874,-62.9548,0.0357,1.7826,5.8129,0
337.5133,-61.9667,0.0361,1.8662,4.8693,0
337.0412,-61.0343,0.0360,1.9612,3.5802,0
336.4816,-60.1602,0.0358,2.0584,3.2549,0
335.8534,-59.3597,0.0358,2.1532,3.0670,0
335.1404,-58.6107,0.0358,2.2498,2.8220,0
334.3604,-57.9356,0.0358,2.3465,2.5302,0
333.5316,-57.3506,0.0358,2.4423,2.3745,0
332.6441,-56.8718,0.0357,2.5534,1.5826,0
331.7064,-56.5016,0.0358,2.6681,1.6086,0
330.7088,-56.2394,0.0356,2.7837,2.7729,0
329.6880,-56.0874,0.0356,2.8961,3.8625,0
328.6161,-55.9875,0.0356,2.9791,4.6703,0
327.5879,-55.9107,0.0357,3.0248,5.1091,0
326.5891,-55.8225,0.0358,3.0394,5.1813,0
325.5680,-55.7391,0.0357,3.0508,5.4256,0
324.5472,-55.6769,0.0357,3.0671,5.8856,0
323.5335,-55.6318,0.0357,3.0832,6.2682,0
322.4556,-55.6000,0.0357,3.0993,6.6701,0
321.4008,-55.5715,0.0356,3.1070,7.1582,0
320.3711,-55.5360,0.0356,3.1071,7.6535,0
319.2749,-55.4982,0.0356,3.1071,8.1439,0
318.2256,-55.4627,0.0356,3.1075,8.6249,0
317.1235,-55.4288,0.0356,3.1095,8.9883,0
316.1112,-55.4044,0.0357,3.1139,9.1841,0
315.0993,-55.3884,0.0358,3.1204,8.9678,0
314.0249,-55.3816,0.0361,3.1289,8.1716,0
312.9809,-55.3832,0.0362,3.1367,6.8921,0
311.9475,-55.3792,0.0362,3.1372,5.5879,0
310.8887,-55.3744,0.0355,3.1372,6.0803,0
309.8076,-55.3696,0.0352,3.1371,7.9459,0
308.6060,-55.3642,0.0353,3.1371,9.2487,0
307.5312,-55.3594,0.0354,3.1371,10.0400,0
306.5270,-55.3549,0.0355,3.1371,10.5677,0
305.4771,-55.3501,0.0355,3.1371,11.0007,0
304.2299,-55.3444,0.0356,3.1370,11.4084,0
303.1144,-55.3393,0.0357,3.1370,11.4823,0
301.8421,-55.3336,0.0358,3.1370,11.4507,0
300.5629,-55.3277,0.0357,3.1370,11.5741,0
299.4338,-55.3226,0.0357,3.1370,11.6363,0
298.3018,-55.3175,0.0358,3.1370,11.6663,0
297.1632,-55.3123,0.0357,3.1370,11.7571,0
296.0211,-55.3071,0.0358,3.1370,11.6855,0
294.8980,-55.3019,0.0359,3.1370,11.4170,0
293.8039,-55.2970,0.0359,3.1370,11.1000,0
292.7407,-55.2921,0.0359,3.1370,10.8436,0
291.5255,-55.2866,0.0357,3.1370,11.1170,0
290.4163,-55.2815,0.0355,3.1370,11.6832,0
289.2520,-55.2762,0.0355,3.1370,12.2413,0
288.2093,-55.2715,0.0355,3.1370,12.7524,0
287.1281,-55.2665,0.0355,3.1370,13.1537,0
286.0206,-55.2614,0.0356,3.1370,13.3759,0
284.7268,-55.2555,0.0358,3.1370,13.1119,0
283.6653,-55.2506,0.0361,3.1370,12.3840,0
282.6635,-55.2460,0.0362,3.1370,11.7239,0
281.5564,-55.2410,0.0361,3.1370,11.0975,0
280.5049,-55.2362,0.0361,3.1370,10.5817,0
279.4966,-55.2316,0.0360,3.1370,10.1962,0
278.3849,-55.2265,0.0359,3.1371,9.8374,0
277.1785,-55.2211,0.0359,3.1371,9.4761,0
276.1426,-55.2168,0.0359,3.1373,9.2064,0
275.1296,-55.2157,0.0359,3.1391,9.0432,0
274.0093,-55.2188,0.0358,-3.1410,8.8996,0
272.8872,-55.2268,0.0357,-3.1371,9.1408,0
271.7343,-55.2430,0.0357,-3.1315,9.2759,0
270.5657,-55.2598,0.0357,-3.1292,9.4371,0
269.4999,-55.2730,0.0357,-3.1292,9.7554,0
268.3932,-55.2868,0.0356,-3.1292,10.1842,0
267.3680,-55.2995,0.0355,-3.1292,10.9230,0
266.1028,-55.3151,0.0354,-3.1292,11.7842,0
265.0958,-55.3276,0.0354,-3.1292,12.3509,0
264.0428,-55.3406,0.0354,-3.1292,12.8783,0
262.9511,-55.3541,0.0355,-3.1293,13.2787,0
261.6442,-55.3702,0.0356,-3.1293,13.5728,0
260.5058,-55.3843,0.0357,-3.1293,13.7342,0
259.3545,-55.3985,0.0357,-3.1293,13.8960,0
258.1886,-55.4128,0.0357,-3.1293,14.0788,0
257.0079,-55.4274,0.0357,-3.1293,14.2421,0
255.8157,-55.4421,0.0357,-3.1293,14.3620,0
254.8153,-55.4544,0.0357,-3.1293,14.4460,0
253.8094,-55.4668,0.0357,-3.1293,14.5176,0
252.7986,-55.4792,0.0357,-3.1293,14.5921,0
251.5783,-55.4942,0.0357,-3.1293,14.6918,0
250.5552,-55.5068,0.0357,-3.1293,14.7709,0
249.5264,-55.5195,0.0357,-3.1293,14.8603,0
248.4902,-55.5322,0.0357,-3.1293,14.9794,0
247.4455,-55.5451,0.0357,-3.1293,15.1019,0
246.3925,-55.5580,0.0357,-3.1293,15.2181,0
245.3316,-55.5710,0.0357,-3.1293,15.3264,0
244.2636,-55.5842,0.0357,-3.1293,15.4269,0
243.1890,-55.5974,0.0357,-3.1293,15.5179,0
242.1087,-55.6106,0.0357,-3.1293,15.5881,0
241.0240,-55.6240,0.0357,-3.1293,15.6480,0
239.9354,-55.6373,0.0357,-3.1293,15.7023,0
238.6245,-55.6534,0.0357,-3.1293,15.7463,0
237.3228,-55.6694,0.0359,-3.1293,15.3922,0
236.2819,-55.6821,0.0361,-3.1293,14.6051,0
235.1106,-55.6965,0.0363,-3.1293,13.5930,0
234.0159,-55.7100,0.0363,-3.1293,12.7510,0
232.9930,-55.7226,0.0363,-3.1293,11.8053,0
231.9117,-55.7359,0.0364,-3.1292,10.5228,0
230.8040,-55.7496,0.0362,-3.1292,9.6068,0
229.7594,-55.7626,0.0360,-3.1292,9.2256,0
228.7192,-55.7754,0.0356,-3.1293,9.7868,0
227.6975,-55.7852,0.0352,-3.1308,11.1897,0
226.5370,-55.7908,0.0351,-3.1345,12.5971,0
225.4427,-55.7894,0.0352,-3.1395,13.5032,0
224.3150,-55.7809,0.0356,3.1380,13.3812,0
223.2366,-55.7668,0.0361,3.1325,12.4910,0
222.0881,-55.7444,0.0364,3.1262,11.1916,0
221.0677,-55.7202,0.0364,3.1218,9.8808,0
219.9286,-55.6969,0.0364,3.1215,8.4838,0
218.8851,-55.6759,0.0358,3.1215,8.6302,0
217.8634,-55.6554,0.0354,3.1215,9.7178,0
216.7054,-55.6321,0.0352,3.1214,11.1434,0
215.5511,-55.6088,0.0351,3.1214,12.5225,0
214.4599,-55.5868,0.0351,3.1214,13.5974,0
213.2829,-55.5630,0.0352,3.1214,14.5895,0
212.2411,-55.5419,0.0352,3.1214,15.3615,0
211.1474,-55.5198,0.0352,3.1213,16.0872,0
210.0055,-55.4966,0.0353,3.1213,16.7525,0
208.5790,-55.4677,0.0353,3.1213,17.4235,0
207.3659,-55.4431,0.0356,3.1213,17.3428,0
206.1946,-55.4193,0.0361,3.1213,16.3554,0
205.1076,-55.3973,0.0365,3.1213,15.0668,0
203.9017,-55.3728,0.0365,3.1214,14.0218,0
202.7735,-55.3533,0.0364,3.1233,13.0621,0
201.7411,-55.3449,0.0365,3.1290,11.7540,0
200.6778,-55.3453,0.0366,3.1365,10.2342,0
199.4990,-55.3564,0.0364,-3.1381,8.8008,0
198.4314,-55.3617,0.0359,-3.1373,8.5454,0
197.3425,-55.3666,0.0357,-3.1372,8.9599,0
196.1187,-55.3720,0.0352,-3.1372,10.7282,0
194.9912,-55.3769,0.0350,-3.1373,12.3785,0
193.9003,-55.3817,0.0350,-3.1373,13.7063,0
192.7063,-55.3868,0.0351,-3.1373,14.8545,0
191.6430,-55.3914,0.0351,-3.1373,15.7033,0
190.2915,-55.3972,0.0352,-3.1373,16.6671,0
188.8639,-55.4032,0.0352,-3.1374,17.5348,0
187.6213,-55.4085,0.0360,-3.1374,18.2021,0
186.5961,-55.4128,0.0362,-3.1374,18.5529,0
185.2838,-55.4184,0.0360,-3.1376,19.0110,0
184.2373,-55.4228,0.0362,-3.1376,18.9626,0
182.9167,-55.4281,0.0361,-3.1373,19.1034,0
181.8383,-55.4326,0.0360,-3.1374,19.4784,0
180.4606,-55.4384,0.0359,-3.1376,20.1512,0
179.3354,-55.4430,0.0359,-3.1377,20.5149,0
178.1903,-55.4477,0.0359,-3.1377,20.8669,0
177.0258,-55.4524,0.0359,-3.1377,21.2070,0
175.8426,-55.4571,0.0359,-3.1377,21.5353,0
174.6414,-55.4619,0.0359,-3.1377,21.8522,0
173.4228,-55.4667,0.0359,-3.1377,22.1548,0
172.1883,-55.4716,0.0360,-3.1378,22.4097,0
170.9431,-55.4765,0.0360,-3.1378,22.5429,0
169.6930,-55.4814,0.0361,-3.1378,22.6049,0
168.1275,-55.4874,0.0362,-3.1376,22.4732,0
166.5678,-55.4937,0.0363,-3.1378,22.3994,0
165.3377,-55.4985,0.0364,-3.1378,22.0639,0
164.1277,-55.5032,0.0365,-3.1379,21.6901,0
162.9387,-55.5078,0.0365,-3.1379,21.3208,0
161.4799,-55.5133,0.0365,-3.1375,20.7404,0
160.3310,-55.5178,0.0365,-3.1375,20.4672,0
158.9139,-55.5235,0.0365,-3.1379,20.3583,0
157.5175,-55.5287,0.0364,-3.1376,19.8882,0
156.4141,-55.5329,0.0364,-3.1376,19.6407,0
155.3356,-55.5371,0.0366,-3.1375,18.9399,0
154.3114,-55.5410,0.0368,-3.1375,18.0137,0
152.8480,-55.5470,0.0360,-3.1374,17.0934,0
151.6872,-55.5519,0.0362,-3.1374,16.4330,0
150.5613,-55.5566,0.0361,-3.1374,16.0455,0
149.4579,-55.5612,0.0360,-3.1374,15.7564,0
148.3715,-55.5657,0.0359,-3.1374,15.5725,0
147.0768,-55.5712,0.0358,-3.1374,15.5298,0
145.7755,-55.5766,0.0357,-3.1374,15.7608,0
144.6636,-55.5813,0.0355,-3.1374,16.2557,0
143.5132,-55.5861,0.0354,-3.1374,16.8369,0
142.3228,-55.5910,0.0354,-3.1374,17.4009,0
141.0951,-55.5961,0.0354,-3.1375,17.9128,0
139.8353,-55.6013,0.0364,-3.1375,18.2009,0
138.8100,-55.6055,0.0362,-3.1373,18.4206,0
137.7971,-55.6096,0.0362,-3.1373,18.1398,0
136.7875,-55.6138,0.0362,-3.1370,17.9737,0
135.3031,-55.6206,0.0357,-3.1370,17.4883,0
134.1211,-55.6260,0.0361,-3.1370,16.6116,0
132.9948,-55.6312,0.0363,-3.1370,15.9382,0
131.6832,-55.6372,0.0361,-3.1370,15.6114,0
130.6041,-55.6422,0.0359,-3.1370,15.4806,0
129.5319,-55.6472,0.0359,-3.1370,15.4193,0
128.2469,-55.6532,0.0358,-3.1370,15.4233,0
126.9644,-55.6591,0.0358,-3.1370,15.3126,0
125.7089,-55.6649,0.0360,-3.1370,14.7687,0
124.5162,-55.6704,0.0362,-3.1369,13.8725,0
123.2289,-55.6764,0.0364,-3.1369,12.6534,0
122.2196,-55.6812,0.0364,-3.1369,11.6487,0
120.9894,-55.6869,0.0363,-3.1369,10.6380,0
119.9661,-55.6917,0.0360,-3.1369,10.5069,0
118.9359,-55.6966,0.0357,-3.1369,10.7158,0
117.8730,-55.7016,0.0356,-3.1369,11.1633,0
116.5952,-55.7076,0.0355,-3.1369,11.8083,0
115.5912,-55.7123,0.0355,-3.1369,12.2505,0
114.5565,-55.7171,0.0356,-3.1369,12.5268,0
113.3386,-55.7229,0.0358,-3.1369,12.4267,0
112.3262,-55.7276,0.0360,-3.1369,11.8126,0
111.2360,-55.7327,0.0363,-3.1369,10.6576,0
110.1201,-55.7379,0.0363,-3.1369,9.5237,0
108.9999,-55.7432,0.0362,-3.1369,8.5209,0
107.9605,-55.7481,0.0359,-3.1368,8.3317,0
106.8845,-55.7532,0.0356,-3.1369,8.8595,0
105.7591,-55.7585,0.0357,-3.1369,9.0759,0
104.7383,-55.7634,0.0357,-3.1369,9.3567,0
103.6757,-55.7684,0.0356,-3.1369,9.7358,0
102.5820,-55.7735,0.0357,-3.1369,9.8838,0
101.5000,-55.7786,0.0359,-3.1369,9.5441,0
100.4734,-55.7909,0.0360,-3.1325,8.8789,0
99.3623,-55.8492,0.0364,-3.1063,7.1143,0
98.3535,-55.9776,0.0363,-3.0565,5.3620,0
97.2672,-56.1994,0.0358,-2.9902,5.3835,0
96.2503,-56.4803,0.0355,-2.9249,6.3909,0
95.2503,-56.8407,0.0355,-2.8529,7.4107,0
94.2603,-57.2959,0.0355,-2.7720,8.1594,0
93.3450,-57.8207,0.0357,-2.6878,8.4975,0
92.5035,-58.4207,0.0361,-2.5967,7.7739,0
91.7036,-59.1427,0.0363,-2.4895,6.2923,0
91.0178,-59.9318,0.0360,-2.3781,5.4572,0
90.4527,-60.7587,0.0358,-2.2680,5.5678,0
89.9730,-61.6614,0.0358,-2.1559,5.6068,0
89.5826,-62.6290,0.0357,-2.0461,5.8764,0
89.2866,-63.6003,0.0357,-1.9503,6.2008,0
89.0490,-64.6444,0.0357,-1.8644,6.5729,0
88.8462,-65.7534,0.0357,-1.7998,6.8860,0
88.7199,-66.8165,0.0357,-1.7376,7.0843,0
88.6560,-67.8155,0.0357,-1.6835,7.2987,0
88.5938,-68.8419,0.0357,-1.6561,7.4818,0
88.5336,-69.9983,0.0357,-1.6366,7.7077,0
88.4890,-71.0029,0.0355,-1.6251,8.4491,0
88.4605,-72.1226,0.0354,-1.6082,9.4334,0
88.4490,-73.3622,0.0354,-1.5907,10.3519,0
88.4542,-74.5564,0.0354,-1.5761,11.0729,0
88.4547,-75.8049,0.0356,-1.5730,11.3350,0
88.4519,-77.0811,0.0356,-1.5730,11.6482,0
88.4494,-78.2279,0.0356,-1.5730,11.9195,0
88.4469,-79.3985,0.0357,-1.5730,12.1467,0
88.4446,-80.4186,0.0357,-1.5730,12.3252,0
88.4420,-81.6275,0.0357,-1.5730,12.5317,0
88.4393,-82.8546,0.0357,-1.5730,12.6804,0
88.4366,-84.0845,0.0358,-1.5730,12.5749,0
88.4340,-85.2974,0.0358,-1.5730,12.4121,0
88.4317,-86.3278,0.0358,-1.5730,12.2991,0
88.4295,-87.3323,0.0360,-1.5730,11.7528,0
88.4271,-88.4324,0.0361,-1.5730,10.9710,0
88.4248,-89.4734,0.0361,-1.5730,10.4911,0
88.4226,-90.4737,0.0360,-1.5730,10.1188,0
88.4203,-91.5730,0.0360,-1.5729,9.6633,0
88.4178,-92.7380,0.0360,-1.5729,8.9614,0
88.4155,-93.7836,0.0362,-1.5729,7.7821,0
88.4132,-94.8458,0.0358,-1.5729,7.9159,0
88.4110,-95.8890,0.0355,-1.5729,8.7306,0
88.4089,-96.9001,0.0355,-1.5729,9.4488,0
88.4062,-98.1367,0.0354,-1.5730,10.3150,0
88.4040,-99.1747,0.0354,-1.5730,11.0051,0
88.4016,-100.2792,0.0354,-1.5730,11.6789,0
88.3986,-101.6159,0.0355,-1.5730,12.3312,0
88.3964,-102.6620,0.0355,-1.5730,12.7435,0
88.3940,-103.7391,0.0356,-1.5730,13.0580,0
88.3915,-104.8349,0.0356,-1.5730,13.2202,0
88.3891,-105.9414,0.0357,-1.5730,13.3268,0
88.3862,-107.2265,0.0359,-1.5730,12.9248,0
88.3839,-108.2522,0.0363,-1.5730,11.6810,0
88.3816,-109.3051,0.0366,-1.5730,10.0938,0
88.3794,-110.3279,0.0366,-1.5729,8.3918,0
88.3771,-111.3611,0.0364,-1.5729,6.6122,0
88.3750,-112.4051,0.0361,-1.5730,5.2599,0
88.3725,-113.5501,0.0354,-1.5730,6.7223,0
88.3703,-114.5763,0.0353,-1.5729,7.9733,0
88.3678,-115.7568,0.0354,-1.5730,8.9247,0
88.3657,-116.7608,0.0357,-1.5730,9.0237,0
88.3633,-117.8680,0.0359,-1.5729,8.7012,0
88.3610,-118.9318,0.0360,-1.5730,8.2447,0
88.3670,-119.9878,0.0362,-1.5681,6.9358,0
88.4050,-121.0063,0.0362,-1.5488,5.4359,0
88.4979,-122.0617,0.0359,-1.5117,4.9099,0
88.6489,-123.0691,0.0358,-1.4633,4.8736,0
88.8725,-124.0649,0.0358,-1.4018,4.8980,0
89.1777,-125.0702,0.0357,-1.3330,5.2294,0
89.5749,-126.0989,0.0356,-1.2584,6.1191,0
90.0492,-127.0740,0.0356,-1.1793,6.7656,0
90.6000,-127.9897,0.0357,-1.0951,7.0960,0
91.2511,-128.8711,0.0358,-1.0038,7.0512,0
91.9514,-129.6573,0.0359,-0.9150,6.6782,0
92.6817,-130.3422,0.0359,-0.8289,6.3623,0
93.5056,-130.9824,0.0359,-0.7368,6.1141,0
94.3698,-131.5344,0.0358,-0.6459,6.1882,0
95.3078,-132.0219,0.0358,-0.5540,6.4078,0
96.3178,-132.4330,0.0358,-0.4594,6.5873,0
97.2947,-132.7307,0.0358,-0.3712,6.6975,0
98.3089,-132.9506,0.0358,-0.2854,6.8067,0
99.3520,-133.0994,0.0358,-0.2063,6.9199,0
100.4185,-133.1958,0.0358,-0.1422,7.0547,0
101.6065,-133.2474,0.0358,-0.0833,7.1872,0
102.6130,-133.2514,0.0358,-0.0411,7.2917,0
103.7398,-133.2300,0.0357,-0.0073,7.4558,0
104.7882,-133.2308,0.0357,-0.0041,7.6360,0
105.8896,-133.2354,0.0355,-0.0041,8.4132,0
106.8906,-133.2395,0.0353,-0.0042,9.6129,0
107.8961,-133.2437,0.0351,-0.0042,11.0320,0
109.0420,-133.2485,0.0351,-0.0042,12.4561,0
110.1306,-133.2530,0.0351,-0.0042,13.5958,0
111.5160,-133.2589,0.0351,-0.0043,14.8280,0
112.7951,-133.2644,0.0352,-0.0043,15.8058,0
113.9213,-133.2692,0.0352,-0.0043,16.5692,0
115.0988,-133.2742,0.0352,-0.0043,17.2889,0
116.5755,-133.2806,0.0357,-0.0043,18.0984,0
