x,y,z,yaw,velocity,change_flag
46.2706,-205.4612,0.0359,-0.0230,0,0
47.2775,-205.4845,0.0341,-0.0231,8.3013,0
48.4069,-205.5105,0.0342,-0.0231,11.9093,0
49.5357,-205.5366,0.0340,-0.0232,15.1045,0
50.6937,-205.5634,0.0338,-0.0232,18.0704,0
51.7688,-205.5884,0.0347,-0.0233,20.3440,0
52.9738,-205.6165,0.0344,-0.0234,22.6756,0
54.3057,-205.6476,0.0343,-0.0235,24.9476,0
55.3856,-205.6729,0.0343,-0.0235,26.6879,0
56.5325,-205.6999,0.0343,-0.0236,28.2159,0
57.7452,-205.7285,0.0344,-0.0236,29.8170,0
59.0219,-205.7587,0.0344,-0.0237,31.3150,0
60.3609,-205.7904,0.0344,-0.0237,32.8028,0
61.7608,-205.8227,0.0345,-0.0233,34.2449,0
63.2200,-205.8541,0.0345,-0.0219,35.6495,0
64.2249,-205.8739,0.0345,-0.0205,36.5630,0
65.2549,-205.8915,0.0346,-0.0182,37.4590,0
66.3096,-205.9062,0.0346,-0.0152,38.3388,0
67.3885,-205.9178,0.0346,-0.0117,39.2029,0
68.4912,-205.9261,0.0346,-0.0082,40.0519,0
69.6172,-205.9314,0.0347,-0.0050,40.8857,0
70.7662,-205.9334,0.0347,-0.0019,41.7044,0
71.9377,-205.9316,0.0347,0.0014,42.5066,0
73.1312,-205.9264,0.0347,0.0044,43.2931,0
74.3462,-205.9191,0.0348,0.0066,44.0643,0
75.5825,-205.9103,0.0348,0.0078,44.8206,0
76.8395,-205.9007,0.0348,0.0082,45.5628,0
78.1169,-205.8904,0.0348,0.0083,46.2907,0
79.4143,-205.8797,0.0349,0.0084,46.9963,0
80.7301,-205.8687,0.0349,0.0083,47.6289,0
82.0607,-205.8576,0.0350,0.0083,48.0693,0
83.3992,-205.8465,0.0352,0.0083,48.2320,0
84.7359,-205.8354,0.0355,0.0083,48.0033,0
86.0598,-205.8244,0.0360,0.0083,47.3881,0
87.3613,-205.8136,0.0365,0.0083,46.4635,0
88.6334,-205.8031,0.0371,0.0084,45.3196,0
89.8713,-205.7928,0.0375,0.0084,44.0326,0
91.0720,-205.7827,0.0379,0.0085,42.6551,0
92.2335,-205.7728,0.0382,0.0086,41.2239,0
93.3548,-205.7621,0.0385,0.0093,39.7650,0
94.4354,-205.7482,0.0386,0.0117,38.2973,0
95.4753,-205.7307,0.0387,0.0154,36.8355,0
96.9595,-205.6967,0.0388,0.0224,34.6742,0
98.3544,-205.6486,0.0388,0.0327,32.5684,0
99.6626,-205.5848,0.0388,0.0458,30.5367,0
100.8874,-205.5094,0.0387,0.0583,28.5930,0
102.0328,-205.4308,0.0386,0.0663,26.7360,0
103.1027,-205.3509,0.0385,0.0721,24.9763,0
104.1027,-205.2751,0.0384,0.0747,23.3709,0
105.3488,-205.1818,0.0380,0.0752,21.8762,0
106.5312,-205.0930,0.0375,0.0753,20.9959,0
107.6854,-205.0012,0.0369,0.0780,20.7743,0
108.8383,-204.9000,0.0365,0.0843,20.9034,0
110.0020,-204.7859,0.0362,0.0933,21.1759,0
111.1826,-204.6562,0.0360,0.1043,21.5554,0
112.3857,-204.5130,0.0359,0.1142,22.0360,0
113.6181,-204.3549,0.0358,0.1237,22.6636,0
114.8899,-204.1796,0.0356,0.1333,23.5226,0
116.2129,-203.9865,0.0355,0.1421,24.5302,0
117.2415,-203.8275,0.0354,0.1491,25.3489,0
118.3043,-203.6552,0.0353,0.1568,26.2464,0
119.4054,-203.4681,0.0352,0.1646,27.2688,0
120.5495,-203.2645,0.0351,0.1728,28.3945,0
121.7395,-203.0414,0.0350,0.1819,29.5947,0
122.9774,-202.7970,0.0349,0.1918,30.8337,0
124.2631,-202.5279,0.0348,0.2033,32.0720,0
125.5944,-202.2319,0.0348,0.2162,33.2505,0
126.9677,-201.9075,0.0349,0.2299,34.3486,0
128.3789,-201.5532,0.0349,0.2445,35.3700,0
129.8245,-201.1676,0.0350,0.2597,36.3305,0
130.8058,-200.8925,0.0350,0.2701,36.9427,0
131.8002,-200.6028,0.0351,0.2808,37.5341,0
132.8067,-200.2976,0.0351,0.2917,38.0999,0
133.8244,-199.9769,0.0352,0.3029,38.6380,0
134.8524,-199.6405,0.0352,0.3144,39.1515,0
135.8896,-199.2880,0.0352,0.3259,39.6446,0
136.9355,-198.9192,0.0353,0.3376,40.1246,0
137.9893,-198.5339,0.0353,0.3495,40.5932,0
139.0506,-198.1317,0.0353,0.3614,41.0510,0
140.1188,-197.7124,0.0354,0.3735,41.4984,0
141.1933,-197.2759,0.0354,0.3856,41.9362,0
142.2737,-196.8222,0.0354,0.3976,42.3642,0
143.3594,-196.3509,0.0354,0.4097,42.7824,0
144.4497,-195.8618,0.0354,0.4220,43.1913,0
145.5441,-195.3548,0.0354,0.4344,43.5920,0
146.6425,-194.8303,0.0355,0.4466,43.9859,0
147.7447,-194.2887,0.0355,0.4582,44.3712,0
148.8502,-193.7302,0.0355,0.4693,44.7482,0
149.9590,-193.1555,0.0355,0.4799,45.1119,0
151.0704,-192.5646,0.0355,0.4903,45.4625,0
152.1840,-191.9575,0.0355,0.5007,45.8017,0
153.2993,-191.3345,0.0356,0.5112,46.1308,0
154.4159,-190.6954,0.0356,0.5217,46.4502,0
155.5329,-190.0398,0.0356,0.5326,46.7558,0
156.6490,-189.3664,0.0356,0.5446,47.0494,0
157.7632,-188.6746,0.0356,0.5576,47.3345,0
158.8749,-187.9642,0.0357,0.5712,47.6119,0
159.9833,-187.2349,0.0357,0.5850,47.8816,0
161.0878,-186.4864,0.0357,0.5990,48.1441,0
162.1878,-185.7188,0.0357,0.6130,48.3998,0
163.2827,-184.9318,0.0357,0.6271,48.6492,0
164.3720,-184.1255,0.0357,0.6412,48.8927,0
165.4552,-183.3000,0.0357,0.6554,49.1301,0
166.5318,-182.4554,0.0357,0.6696,49.3593,0
167.6012,-181.5919,0.0358,0.6837,49.5718,0
168.6625,-180.7103,0.0358,0.6978,49.7295,0
169.7132,-179.8126,0.0359,0.7118,49.7583,0
170.7501,-178.9016,0.0360,0.7256,49.6299,0
171.7700,-177.9803,0.0362,0.7393,49.3655,0
172.7706,-177.0513,0.0364,0.7529,49.0052,0
173.7506,-176.1165,0.0365,0.7663,48.5809,0
174.7093,-175.1779,0.0367,0.7790,48.1053,0
175.6463,-174.2370,0.0368,0.7914,47.5903,0
176.5613,-173.2952,0.0369,0.8034,47.0571,0
177.4551,-172.3535,0.0370,0.8148,46.5181,0
178.3281,-171.4128,0.0371,0.8255,45.9782,0
179.1807,-170.4738,0.0371,0.8360,45.4361,0
180.0128,-169.5366,0.0371,0.8466,44.8947,0
180.8241,-168.6011,0.0371,0.8577,44.3580,0
181.6148,-167.6674,0.0371,0.8692,43.8291,0
182.3854,-166.7358,0.0371,0.8808,43.3120,0
183.1361,-165.8062,0.0371,0.8923,42.8074,0
183.8674,-164.8788,0.0371,0.9038,42.3156,0
184.5797,-163.9537,0.0371,0.9151,41.8364,0
185.2734,-163.0308,0.0371,0.9264,41.3705,0
185.9491,-162.1104,0.0371,0.9375,40.9235,0
186.6074,-161.1921,0.0370,0.9485,40.5021,0
187.2489,-160.2758,0.0370,0.9595,40.1050,0
187.8743,-159.3612,0.0370,0.9703,39.7287,0
188.4841,-158.4485,0.0369,0.9809,39.3699,0
189.0789,-157.5375,0.0369,0.9913,39.0261,0
189.6592,-156.6282,0.0369,1.0015,38.6953,0
190.2253,-155.7206,0.0368,1.0117,38.3764,0
190.7775,-154.8147,0.0368,1.0217,38.0683,0
191.3163,-153.9104,0.0368,1.0317,37.7701,0
191.8418,-153.0078,0.0368,1.0416,37.4813,0
192.3543,-152.1068,0.0367,1.0515,37.2013,0
192.8542,-151.2075,0.0367,1.0613,36.9298,0
193.3418,-150.3099,0.0367,1.0709,36.6663,0
193.8172,-149.4139,0.0367,1.0805,36.4106,0
194.2808,-148.5195,0.0367,1.0900,36.1622,0
194.7327,-147.6268,0.0367,1.0995,35.9211,0
195.3893,-146.2909,0.0366,1.1135,35.5725,0
196.0209,-144.9586,0.0366,1.1275,35.2389,0
196.6285,-143.6301,0.0366,1.1411,34.9203,0
197.2132,-142.3056,0.0366,1.1542,34.6151,0
197.7757,-140.9849,0.0366,1.1671,34.3229,0
198.3164,-139.6680,0.0366,1.1800,34.0434,0
198.8359,-138.3548,0.0365,1.1927,33.7760,0
199.3346,-137.0452,0.0365,1.2054,33.5202,0
199.8131,-135.7391,0.0365,1.2180,33.2755,0
200.2717,-134.4365,0.0365,1.2305,33.0415,0
200.7109,-133.1372,0.0365,1.2430,32.8176,0
201.1311,-131.8412,0.0365,1.2553,32.6036,0
201.5325,-130.5484,0.0365,1.2676,32.3989,0
201.9156,-129.2587,0.0365,1.2799,32.2032,0
202.2807,-127.9721,0.0364,1.2920,32.0189,0
202.6283,-126.6878,0.0364,1.3041,31.8674,0
202.9590,-125.4041,0.0364,1.3162,31.7842,0
203.2738,-124.1178,0.0363,1.3283,31.7989,0
203.5739,-122.8243,0.0362,1.3404,31.9469,0
203.8605,-121.5172,0.0361,1.3525,32.2732,0
204.1350,-120.1890,0.0359,1.3648,32.7954,0
204.3979,-118.8325,0.0357,1.3773,33.4691,0
204.6495,-117.4431,0.0355,1.3900,34.2246,0
204.8888,-116.0186,0.0354,1.4030,35.0239,0
205.1151,-114.5578,0.0353,1.4162,35.8407,0
205.2579,-113.5636,0.0353,1.4252,36.3867,0
205.3940,-112.5532,0.0353,1.4343,36.9301,0
205.5229,-111.5267,0.0353,1.4435,37.4673,0
205.6442,-110.4845,0.0353,1.4528,37.9941,0
205.7576,-109.4268,0.0353,1.4622,38.5063,0
205.8634,-108.3544,0.0353,1.4711,39.0033,0
205.9618,-107.2676,0.0353,1.4796,39.4830,0
206.0524,-106.1671,0.0353,1.4879,39.9456,0
206.1372,-105.0534,0.0353,1.4948,40.3967,0
206.2189,-103.9271,0.0354,1.4995,40.8343,0
206.2997,-102.7888,0.0354,1.5015,41.2588,0
206.3799,-101.6389,0.0354,1.5022,41.6720,0
206.4600,-100.4775,0.0354,1.5024,42.0747,0
206.5405,-99.3052,0.0354,1.5024,42.4675,0
206.6215,-98.1220,0.0355,1.5024,42.8522,0
206.7033,-96.9284,0.0355,1.5024,43.2308,0
206.7858,-95.7243,0.0355,1.5024,43.6029,0
206.8663,-94.5099,0.0355,1.5037,43.9666,0
206.9423,-93.2852,0.0355,1.5075,44.3213,0
207.0126,-92.0504,0.0355,1.5130,44.6722,0
207.0766,-90.8055,0.0355,1.5193,45.0196,0
207.1326,-89.5508,0.0355,1.5264,45.3580,0
207.1790,-88.2864,0.0356,1.5345,45.6842,0
207.2151,-87.0128,0.0356,1.5433,46.0021,0
207.2404,-85.7303,0.0356,1.5523,46.3112,0
207.2545,-84.4391,0.0356,1.5614,46.6121,0
207.2597,-83.1395,0.0356,1.5692,46.9098,0
207.2585,-81.8317,0.0356,1.5746,47.2002,0
207.2527,-80.5161,0.0356,1.5778,47.4832,0
207.2441,-79.1926,0.0356,1.5792,47.7595,0
207.2337,-77.8616,0.0357,1.5797,48.0294,0
207.2223,-76.5232,0.0357,1.5798,48.2931,0
207.2103,-75.1776,0.0357,1.5799,48.5510,0
207.1980,-73.8250,0.0357,1.5799,48.8031,0
207.1857,-72.4654,0.0357,1.5799,49.0442,0
207.1733,-71.0995,0.0357,1.5799,49.2672,0
207.1608,-69.7277,0.0357,1.5799,49.4736,0
207.1482,-68.3503,0.0358,1.5798,49.6678,0
207.1357,-66.9677,0.0358,1.5798,49.8536,0
207.1232,-65.5800,0.0358,1.5798,50.0308,0
207.1106,-64.1876,0.0358,1.5798,50.1973,0
207.0981,-62.7908,0.0358,1.5798,50.3531,0
207.0855,-61.3898,0.0358,1.5798,50.5001,0
207.0728,-59.9848,0.0359,1.5798,50.6397,0
207.0602,-58.5760,0.0359,1.5797,50.7730,0
207.0475,-57.1636,0.0359,1.5797,50.9010,0
207.0348,-55.7478,0.0359,1.5797,51.0242,0
207.0222,-54.3285,0.0359,1.5797,51.1432,0
207.0095,-52.9061,0.0359,1.5797,51.2586,0
206.9968,-51.4805,0.0359,1.5797,51.3705,0
206.9842,-50.0518,0.0359,1.5797,51.4794,0
206.9714,-48.6202,0.0359,1.5797,51.5854,0
206.9587,-47.1856,0.0359,1.5797,51.6887,0
206.9459,-45.7482,0.0360,1.5796,51.7895,0
206.9331,-44.3081,0.0360,1.5796,51.8878,0
206.9203,-42.8653,0.0360,1.5796,51.9839,0
206.9075,-41.4198,0.0360,1.5796,52.0777,0
206.8948,-39.9718,0.0360,1.5796,52.1694,0
206.8820,-38.5212,0.0360,1.5796,52.2591,0
206.8692,-37.0682,0.0360,1.5796,52.3468,0
206.8564,-35.6128,0.0360,1.5796,52.4325,0
206.8436,-34.1550,0.0360,1.5796,52.5164,0
206.8309,-32.6950,0.0360,1.5795,52.5984,0
206.8181,-31.2327,0.0360,1.5795,52.6787,0
206.8064,-29.7681,0.0360,1.5790,52.7568,0
206.7975,-28.3015,0.0360,1.5771,52.8311,0
206.7924,-26.8329,0.0360,1.5741,52.8980,0
206.7919,-25.3625,0.0360,1.5704,52.9525,0
206.7956,-23.8910,0.0360,1.5669,52.9885,0
206.8015,-22.4189,0.0360,1.5648,52.9993,0
206.8093,-20.9469,0.0361,1.5640,52.9858,0
206.8186,-19.4756,0.0361,1.5636,52.9521,0
206.8287,-18.0055,0.0361,1.5635,52.9033,0
206.8392,-16.5370,0.0362,1.5634,52.8435,0
206.8500,-15.0703,0.0362,1.5634,52.7758,0
206.8607,-13.6055,0.0362,1.5634,52.7026,0
206.8715,-12.1428,0.0362,1.5634,52.6257,0
206.8822,-10.6823,0.0363,1.5634,52.5465,0
206.8930,-9.2240,0.0363,1.5634,52.4675,0
206.9038,-7.7679,0.0363,1.5634,52.3911,0
206.9146,-6.3138,0.0363,1.5634,52.3169,0
206.9254,-4.8618,0.0363,1.5634,52.2449,0
206.9361,-3.4117,0.0363,1.5634,52.1748,0
206.9469,-1.9636,0.0363,1.5634,52.1065,0
206.9575,-0.5173,0.0363,1.5634,52.0400,0
206.9682,0.9272,0.0363,1.5634,51.9751,0
206.9789,2.3698,0.0363,1.5634,51.9118,0
206.9895,3.8108,0.0363,1.5634,51.8500,0
207.0002,5.2501,0.0363,1.5634,51.7897,0
207.0108,6.6877,0.0363,1.5634,51.7308,0
207.0215,8.1237,0.0362,1.5634,51.6732,0
207.0322,9.5581,0.0362,1.5634,51.6170,0
207.0428,10.9909,0.0362,1.5634,51.5621,0
207.0535,12.4223,0.0362,1.5634,51.5084,0
207.0640,13.8522,0.0362,1.5634,51.4576,0
207.0746,15.2808,0.0362,1.5634,51.4109,0
207.0851,16.7081,0.0362,1.5634,51.3676,0
207.0957,18.1343,0.0362,1.5634,51.3270,0
207.1062,19.5594,0.0362,1.5634,51.2887,0
207.1168,20.9835,0.0362,1.5634,51.2523,0
207.1272,22.4065,0.0362,1.5635,51.2174,0
207.1374,23.8287,0.0362,1.5636,51.1839,0
207.1469,25.2499,0.0362,1.5640,51.1515,0
207.1541,26.6702,0.0362,1.5655,51.1196,0
207.1575,28.0897,0.0362,1.5682,51.0882,0
207.1561,29.5083,0.0362,1.5722,51.0576,0
207.1489,30.9260,0.0362,1.5767,51.0281,0
207.1356,32.3429,0.0362,1.5816,50.9993,0
207.1152,33.7589,0.0362,1.5868,50.9709,0
207.0881,35.1741,0.0362,1.5918,50.9439,0
207.0578,36.5884,0.0362,1.5948,50.9185,0
207.0250,38.0021,0.0362,1.5960,50.8936,0
206.9903,39.4150,0.0362,1.5965,50.8693,0
206.9545,40.8271,0.0362,1.5967,50.8425,0
206.9183,42.2384,0.0362,1.5967,50.8102,0
206.8818,43.6488,0.0362,1.5968,50.7740,0
206.8452,45.0580,0.0362,1.5968,50.7351,0
206.8087,46.4662,0.0362,1.5968,50.6945,0
206.7722,47.8733,0.0362,1.5968,50.6543,0
206.7356,49.2793,0.0362,1.5968,50.6181,0
206.6991,50.6843,0.0362,1.5968,50.5869,0
206.6627,52.0886,0.0362,1.5968,50.5597,0
206.6262,53.4922,0.0362,1.5968,50.5354,0
206.5898,54.8951,0.0362,1.5968,50.5135,0
206.5533,56.2975,0.0362,1.5967,50.4935,0
206.5169,57.6993,0.0362,1.5967,50.4750,0
206.4806,59.1006,0.0362,1.5967,50.4562,0
206.4443,60.5013,0.0362,1.5967,50.4277,0
206.4079,61.9004,0.0362,1.5967,50.3427,0
206.3717,63.2954,0.0363,1.5967,50.1467,0
206.3357,64.6829,0.0364,1.5967,49.8203,0
206.3000,66.0587,0.0365,1.5968,49.3322,0
206.2647,67.4179,0.0368,1.5968,48.6540,0
206.2300,68.7552,0.0370,1.5968,47.7928,0
206.1959,70.0661,0.0373,1.5969,46.7872,0
206.1625,71.3474,0.0376,1.5969,45.6772,0
206.1299,72.5966,0.0378,1.5970,44.4951,0
206.0981,73.8122,0.0380,1.5970,43.2686,0
206.0671,74.9934,0.0382,1.5971,42.0191,0
206.0370,76.1398,0.0383,1.5972,40.7684,0
206.0078,77.2519,0.0384,1.5972,39.5443,0
205.9792,78.3308,0.0384,1.5973,38.3656,0
205.9516,79.3778,0.0384,1.5973,37.2407,0
205.9246,80.3948,0.0383,1.5974,36.1992,0
205.8853,81.8717,0.0381,1.5974,34.9238,0
205.8472,83.3048,0.0378,1.5975,34.0342,0
205.8097,84.7097,0.0374,1.5975,33.5457,0
205.7724,86.1049,0.0369,1.5975,33.4955,0
205.7350,87.5044,0.0365,1.5975,33.6996,0
205.6973,88.9160,0.0362,1.5975,34.0505,0
205.6591,90.3449,0.0359,1.5975,34.5203,0
205.6204,91.7955,0.0357,1.5975,35.0811,0
205.5810,93.2713,0.0356,1.5974,35.7147,0
205.5410,94.7741,0.0355,1.5974,36.3711,0
205.5139,95.7912,0.0355,1.5974,36.8082,0
205.4865,96.8203,0.0354,1.5973,37.2419,0
205.4588,97.8614,0.0354,1.5973,37.6706,0
205.4287,98.9142,0.0354,1.5985,38.0921,0
205.3938,99.9784,0.0354,1.6017,38.5049,0
205.3508,101.0536,0.0355,1.6079,38.9057,0
205.2953,102.1391,0.0355,1.6179,39.2920,0
205.2230,103.2341,0.0355,1.6321,39.6652,0
205.1307,104.3380,0.0355,1.6499,40.0301,0
205.0165,105.4499,0.0355,1.6699,40.3936,0
204.8797,106.5694,0.0355,1.6904,40.7535,0
204.7233,107.6965,0.0356,1.7090,41.1169,0
204.5522,108.8316,0.0356,1.7230,41.4750,0
204.3720,109.9752,0.0356,1.7310,41.8201,0
204.1861,111.1273,0.0356,1.7343,42.1538,0
203.9956,112.2880,0.0356,1.7354,42.4790,0
203.8020,113.4572,0.0356,1.7358,42.7961,0
203.6062,114.6349,0.0356,1.7358,43.1039,0
203.4087,115.8207,0.0356,1.7359,43.4016,0
203.2098,117.0145,0.0356,1.7359,43.6901,0
203.0096,118.2162,0.0356,1.7358,43.9702,0
202.8073,119.4252,0.0357,1.7363,44.2425,0
202.5968,120.6401,0.0357,1.7403,44.4931,0
202.3743,121.8595,0.0357,1.7489,44.7160,0
202.1378,123.0817,0.0357,1.7607,44.8798,0
201.8858,124.3040,0.0358,1.7742,44.9546,0
201.6173,125.5232,0.0359,1.7886,44.9331,0
201.3300,126.7361,0.0361,1.8044,44.8311,0
201.0236,127.9406,0.0362,1.8214,44.6868,0
200.6983,129.1355,0.0363,1.8386,44.5163,0
200.3569,130.3208,0.0364,1.8543,44.3327,0
200.0018,131.4966,0.0364,1.8675,44.1373,0
199.6342,132.6627,0.0365,1.8789,43.9337,0
199.2549,133.8191,0.0365,1.8897,43.7299,0
198.8629,134.9652,0.0365,1.9011,43.5266,0
198.4583,136.1011,0.0365,1.9134,43.3284,0
198.0417,137.2269,0.0365,1.9259,43.1377,0
197.6132,138.3427,0.0365,1.9383,42.9562,0
197.1729,139.4487,0.0365,1.9504,42.7840,0
196.7207,140.5447,0.0365,1.9627,42.6190,0
196.2556,141.6305,0.0365,1.9756,42.4588,0
195.7778,142.7060,0.0365,1.9890,42.3058,0
195.2870,143.7711,0.0365,2.0027,42.1580,0
194.7832,144.8256,0.0365,2.0166,42.0151,0
194.2664,145.8694,0.0365,2.0306,41.8768,0
193.7367,146.9026,0.0365,2.0446,41.7429,0
193.1953,147.9256,0.0364,2.0580,41.6152,0
192.6429,148.9386,0.0364,2.0705,41.4912,0
192.0797,149.9419,0.0364,2.0826,41.3696,0
191.5060,150.9353,0.0364,2.0945,41.2512,0
190.9221,151.9191,0.0364,2.1063,41.1360,0
190.3283,152.8931,0.0364,2.1180,41.0240,0
189.7245,153.8575,0.0364,2.1297,40.9181,0
189.1110,154.8124,0.0364,2.1414,40.8231,0
188.4877,155.7580,0.0364,2.1531,40.7382,0
187.8552,156.6948,0.0364,2.1644,40.6622,0
187.2135,157.6229,0.0364,2.1753,40.5917,0
186.5629,158.5424,0.0363,2.1861,40.5256,0
185.9033,159.4533,0.0363,2.1969,40.4632,0
185.2349,160.3558,0.0363,2.2076,40.4039,0
184.5579,161.2497,0.0363,2.2183,40.3472,0
183.8722,162.1350,0.0363,2.2290,40.2927,0
183.1781,163.0119,0.0363,2.2396,40.2405,0
182.4764,163.8810,0.0363,2.2497,40.1949,0
181.7682,164.7435,0.0363,2.2584,40.1651,0
181.0543,165.6008,0.0363,2.2656,40.1680,0
180.3349,166.4545,0.0362,2.2715,40.2140,0
179.6096,167.3058,0.0362,2.2766,40.2962,0
178.8781,168.1555,0.0361,2.2815,40.4196,0
178.1392,169.0046,0.0360,2.2865,40.5994,0
177.3904,169.8528,0.0360,2.2928,40.8349,0
176.6301,170.7006,0.0359,2.3005,41.1158,0
175.8562,171.5473,0.0358,2.3098,41.4271,0
175.0673,172.3924,0.0357,2.3205,41.7604,0
174.2627,173.2356,0.0357,2.3320,42.0957,0
173.4422,174.0758,0.0357,2.3440,42.4037,0
172.6058,174.9114,0.0357,2.3565,42.6759,0
171.7538,175.7412,0.0357,2.3695,42.9158,0
170.8864,176.5641,0.0357,2.3829,43.1281,0
170.0039,177.3786,0.0358,2.3967,43.3164,0
169.1065,178.1843,0.0358,2.4108,43.4904,0
168.1944,178.9805,0.0358,2.4249,43.6566,0
167.2680,179.7669,0.0359,2.4389,43.8159,0
166.3275,180.5432,0.0359,2.4529,43.9685,0
165.3731,181.3090,0.0359,2.4668,44.1157,0
164.4049,182.0638,0.0359,2.4808,44.2580,0
163.4232,182.8074,0.0359,2.4948,44.3959,0
162.4282,183.5396,0.0359,2.5089,44.5298,0
161.4200,184.2598,0.0359,2.5230,44.6600,0
160.3989,184.9677,0.0360,2.5371,44.7867,0
159.3651,185.6633,0.0360,2.5513,44.9101,0
158.3187,186.3459,0.0360,2.5655,45.0303,0
157.2600,187.0156,0.0360,2.5796,45.1482,0
156.1896,187.6725,0.0360,2.5934,45.2642,0
155.1077,188.3166,0.0360,2.6070,45.3770,0
154.0146,188.9476,0.0360,2.6203,45.4868,0
152.9105,189.5653,0.0360,2.6337,45.5940,0
151.7957,190.1697,0.0360,2.6470,45.6986,0
150.6704,190.7606,0.0360,2.6604,45.8007,0
149.5348,191.3376,0.0360,2.6737,45.9004,0
148.3892,191.9008,0.0360,2.6871,45.9980,0
147.2340,192.4503,0.0360,2.7002,46.0945,0
146.0695,192.9860,0.0360,2.7130,46.1881,0
144.8958,193.5078,0.0360,2.7258,46.2793,0
143.7133,194.0155,0.0360,2.7386,46.3684,0
142.5221,194.5090,0.0360,2.7513,46.4555,0
141.3226,194.9882,0.0360,2.7641,46.5390,0
140.1149,195.4529,0.0360,2.7769,46.6176,0
138.8994,195.9027,0.0360,2.7898,46.6920,0
137.6764,196.3375,0.0360,2.8027,46.7625,0
136.4458,196.7566,0.0360,2.8160,46.8293,0
135.2079,197.1591,0.0361,2.8298,46.8924,0
133.9627,197.5448,0.0361,2.8440,46.9541,0
132.7107,197.9133,0.0361,2.8584,47.0140,0
131.4519,198.2643,0.0361,2.8729,47.0721,0
130.1866,198.5974,0.0361,2.8874,47.1285,0
128.9152,198.9127,0.0361,2.9019,47.1834,0
127.6379,199.2098,0.0361,2.9165,47.2367,0
126.3549,199.4881,0.0361,2.9313,47.2856,0
125.0665,199.7471,0.0361,2.9465,47.3304,0
123.7732,199.9866,0.0361,2.9620,47.3708,0
122.4754,200.2065,0.0361,2.9774,47.4058,0
121.1735,200.4070,0.0361,2.9927,47.4375,0
119.8679,200.5880,0.0361,3.0077,47.4653,0
118.5590,200.7495,0.0361,3.0226,47.4903,0
117.2473,200.8926,0.0361,3.0370,47.5177,0
115.9330,201.0185,0.0361,3.0502,47.5474,0
114.6163,201.1287,0.0361,3.0622,47.5808,0
113.2976,201.2246,0.0361,3.0728,47.6175,0
111.9769,201.3069,0.0361,3.0827,47.6558,0
110.6544,201.3778,0.0361,3.0913,47.6982,0
109.3304,201.4433,0.0361,3.0962,47.7427,0
108.0049,201.5050,0.0361,3.0981,47.7870,0
106.6781,201.5638,0.0361,3.0989,47.8311,0
105.3499,201.6213,0.0361,3.0991,47.8748,0
104.0206,201.6780,0.0361,3.0992,47.9179,0
102.6901,201.7346,0.0361,3.0992,47.9603,0
101.3584,201.7910,0.0361,3.0992,47.9975,0
100.0260,201.8466,0.0361,3.0997,48.0109,0
98.6941,201.8992,0.0361,3.1016,47.9499,0
97.3657,201.9476,0.0362,3.1048,47.7747,0
96.0437,201.9910,0.0363,3.1089,47.5031,0
94.7301,202.0286,0.0365,3.1135,47.1647,0
93.4267,202.0600,0.0366,3.1183,46.7804,0
92.1342,202.0836,0.0367,3.1240,46.3650,0
90.8534,202.0989,0.0368,3.1303,45.9318,0
89.5848,202.1059,0.0368,3.1369,45.4898,0
88.3285,202.1045,0.0369,-3.1395,45.0444,0
87.0845,202.0964,0.0369,-3.1336,44.6005,0
85.8528,202.0834,0.0369,-3.1293,44.1594,0
84.6334,202.0650,0.0370,-3.1256,43.7213,0
83.4262,202.0413,0.0370,-3.1216,43.2890,0
82.2314,202.0157,0.0370,-3.1190,42.8211,0
